13:53:46,781
13:53:46,1022
13:53:47,848
13:53:47,760
13:53:48,706
13:53:49,1019
13:53:50,739
13:53:50,841
13:53:52,859
13:53:53,930
13:53:55,796
13:53:57,778
13:53:58,989
13:53:59,898
13:54:00,992
13:54:00,963
13:54:01,740
13:54:02,959
13:54:02,733
13:54:03,811
13:54:04,957
13:54:05,978
13:54:06,816
13:54:07,827
13:54:08,1053
13:54:08,1062
13:54:09,819
13:54:10,782
13:54:11,961
13:54:12,964
13:54:12,807
13:54:13,868
13:54:14,788
13:54:14,729
13:54:16,890
13:54:17,982
13:54:18,838
13:56:02,978
13:56:02,980
13:56:03,772
13:56:03,959
13:56:04,922
13:56:04,884
13:56:05,905
13:56:05,976
13:56:06,1018
13:56:07,978
13:56:07,864
13:56:08,817
13:56:09,863
13:56:11,721
13:56:12,1072
13:56:13,925
13:56:14,746
13:56:15,995
13:56:15,739
13:56:16,759
13:56:17,816
13:56:18,776
13:56:19,820
13:56:19,903
13:56:20,802
13:56:21,933
13:56:23,999
13:56:23,1076
13:56:24,999
13:56:25,1037
13:56:26,706
13:56:27,1008
13:56:28,804
13:56:29,1071
13:56:29,985
13:56:30,1019
13:56:30,942
13:56:31,891
15:22:39,1073
15:22:39,812
15:22:40,987
15:22:41,1008
15:22:42,758
15:22:43,907
15:22:44,918
15:22:45,862
15:22:46,983
15:22:48,870
15:22:49,873
15:22:51,900
15:22:52,813
15:22:53,991
15:22:54,701
15:22:56,1023
15:22:57,1041
15:22:58,861
15:23:00,870
15:23:01,928
15:23:03,819
15:23:04,777
15:23:05,877
15:23:07,913
15:23:08,1095
15:23:10,728
15:23:11,828
15:23:12,847
15:23:14,841
15:23:15,740
15:23:16,1075
15:23:17,824
15:23:18,1041
15:23:20,713
15:23:21,744
15:23:22,1075
15:23:24,994
15:23:25,762
15:23:26,762
15:23:27,790
15:23:28,812
15:23:29,845
15:23:30,790
15:23:30,1015
15:23:31,929
15:23:32,714
15:23:32,738
15:23:33,1027
15:23:33,901
15:23:34,715
15:23:35,743
15:23:35,981
15:23:36,1086
15:23:36,1072
15:23:36,749
15:23:37,1044
15:23:37,779
15:23:38,770
15:23:38,910
15:23:39,987
15:23:39,993
15:23:40,721
15:23:40,1036
15:23:41,854
15:23:41,849
15:23:42,877
15:23:42,1054
15:23:43,982
15:23:43,981
15:23:44,909
15:23:44,773
15:23:45,817
15:23:46,809
15:23:46,768
15:23:47,798
15:23:47,841
15:23:48,918
15:23:48,814
15:23:49,1040
15:23:49,951
15:23:50,953
15:23:50,793
15:23:51,1092
15:23:51,964
15:23:52,787
15:23:53,789
15:23:53,725
15:23:54,964
15:23:55,921
15:23:57,722
15:23:59,701
15:24:01,1055
15:24:02,940
15:24:03,866
15:24:05,1055
15:24:05,1069
15:24:06,1091
15:24:07,779
15:24:07,803
15:24:08,734
15:24:09,788
15:24:59,827
15:25:00,963
15:25:00,801
15:25:01,738
15:25:01,1013
15:25:01,1068
15:25:02,719
15:25:02,912
15:25:03,1017
15:25:03,783
15:25:04,754
15:25:04,700
15:25:05,994
15:25:05,1025
15:25:06,725
15:25:06,830
15:25:07,841
15:25:07,837
15:25:07,822
15:25:08,842
15:25:08,845
15:25:08,1086
15:25:09,1005
15:25:09,858
15:25:09,959
15:25:10,931
15:25:10,860
15:25:11,919
15:25:11,970
15:25:12,942
15:25:12,978
15:25:12,980
15:25:13,976
15:25:13,848
15:25:13,1002
15:25:14,887
15:25:14,751
15:25:15,997
15:25:15,1073
15:25:15,804
15:25:15,722
15:25:16,831
15:25:16,965
15:25:17,807
15:25:18,740
15:25:19,850
15:25:20,984
15:25:20,702
15:25:21,1039
15:25:21,795
15:25:22,1044
15:25:23,1041
15:25:24,786
15:25:24,862
15:25:25,776
15:25:25,799
15:25:26,962
15:25:26,1002
15:25:27,961
15:25:27,870
15:25:28,983
15:25:28,1083
15:25:29,948
15:25:30,943
15:25:30,711
15:25:31,716
15:25:31,967
15:25:31,995
15:25:32,944
15:25:32,935
15:25:33,1055
15:25:33,734
15:25:36,1007
15:25:36,875
15:25:37,980
15:25:37,959
15:25:38,1022
15:25:38,937
15:25:39,849
15:25:39,920
15:25:40,969
15:25:40,987
15:25:41,792
15:25:41,889
15:25:42,849
15:25:42,912
15:25:42,803
15:25:43,963
15:25:43,906
15:25:44,728
15:25:44,1012
15:25:45,795
15:25:45,1087
15:25:46,713
15:25:46,733
15:25:46,1038
15:25:47,1014
15:25:47,844
15:25:48,1084
15:25:48,811
15:25:49,749
15:25:49,951
15:25:50,974
15:25:50,898
15:25:51,867
15:25:51,1016
15:25:52,837
15:25:54,871
15:25:55,964
15:25:55,762
15:25:56,916
15:25:56,946
15:25:57,796
15:25:58,1031
15:25:59,1047
15:25:59,774
15:26:00,989
15:26:01,779
15:26:01,1039
15:26:02,780
15:26:02,988
15:26:03,816
15:26:03,955
15:26:04,795
15:26:04,1093
15:26:04,939
15:26:05,1042
15:26:05,1046
15:26:06,783
15:26:06,707
15:26:07,1085
15:26:07,899
15:26:08,841
15:26:08,857
15:26:09,1026
15:26:09,931
15:26:10,1028
15:26:10,744
15:26:11,746
15:26:11,883
15:26:12,939
15:26:12,763
15:26:13,788
15:26:13,1006
15:26:14,860
15:26:14,1045
15:26:15,723
15:26:17,925
15:26:18,1066
15:26:18,1025
15:26:19,722
15:26:19,716
15:26:20,940
15:26:20,998
15:26:21,840
15:26:22,809
15:26:22,813
15:26:22,966
15:26:23,711
15:26:23,844
15:26:24,1014
15:26:24,1092
15:26:25,1038
15:26:25,942
15:26:26,985
15:26:26,800
15:26:27,942
15:26:27,839
15:26:28,772
15:26:28,865
15:26:29,777
15:26:29,1064
15:26:30,981
15:26:30,1053
15:26:31,822
15:26:31,817
15:26:31,813
15:26:32,968
15:26:33,737
15:26:34,929
15:26:34,893
15:26:34,806
15:26:35,800
15:26:36,1000
15:26:36,813
15:26:36,959
15:26:37,929
15:26:37,986
15:26:37,1068
15:26:37,1038
15:26:38,831
15:43:01,989
15:43:02,963
15:43:02,891
15:43:02,1043
15:43:02,708
15:43:03,993
15:43:03,1011
15:43:03,1018
15:43:03,928
15:43:03,898
15:43:03,914
15:43:04,702
15:43:04,781
15:43:04,891
15:43:04,919
15:43:05,704
15:43:05,915
15:43:05,857
15:43:06,778
15:43:06,707
15:43:07,705
15:43:08,810
15:43:08,866
15:43:09,1068
15:43:09,776
15:43:09,1022
15:43:09,1009
15:43:10,745
15:43:11,855
15:43:11,1048
15:43:12,1085
15:43:12,766
15:43:12,814
15:43:13,1039
15:43:13,780
15:43:14,1066
15:43:14,769
15:43:15,738
15:43:15,1067
15:43:15,888
15:43:16,907
15:43:16,968
15:43:17,795
15:43:17,1042
15:43:18,860
15:43:18,964
15:43:19,1049
15:43:19,703
15:43:20,737
15:43:20,759
15:43:21,920
15:43:21,989
15:43:22,767
15:43:22,736
15:43:22,924
15:43:23,842
15:43:23,731
15:43:24,1054
15:43:24,742
15:43:25,860
15:43:25,729
15:43:25,839
15:43:26,823
15:43:26,913
15:43:27,1023
15:43:27,897
15:43:28,723
15:43:28,704
15:43:29,772
15:43:29,925
15:43:30,740
15:43:30,910
15:43:31,1035
15:43:31,723
15:43:31,760
15:43:32,829
15:43:33,854
15:43:33,841
15:43:33,920
15:43:34,911
15:43:34,1033
15:43:35,957
15:43:35,901
15:43:36,760
15:43:36,973
15:43:37,786
15:43:37,913
15:43:38,1041
15:43:38,989
15:43:39,951
15:43:39,983
15:43:40,793
15:43:40,1056
15:43:41,882
15:43:41,825
15:43:42,918
15:43:42,723
15:43:44,1004
15:43:44,708
15:43:45,793
15:43:45,962
15:43:46,886
15:43:47,802
15:43:47,976
15:43:47,899
15:43:48,794
15:43:49,780
15:43:49,853
15:43:49,752
15:43:50,780
15:43:50,953
15:43:51,931
15:43:51,895
15:43:52,719
15:43:52,999
15:43:53,1032
15:43:53,735
15:43:54,996
15:43:54,773
15:43:55,998
15:43:56,817
15:43:56,877
15:43:57,858
15:43:57,1076
15:43:57,1025
15:43:58,1087
15:43:58,1030
15:43:59,1074
15:43:59,831
15:44:00,966
15:44:00,1044
15:44:00,826
15:44:01,702
15:44:01,914
15:44:01,1080
15:44:01,817
15:44:02,857
15:44:02,895
15:44:02,746
15:44:03,1084
15:44:03,925
15:44:03,755
15:44:04,927
15:44:04,704
15:44:04,967
15:44:04,993
15:44:05,769
15:44:05,913
15:44:05,842
15:44:06,730
15:44:13,955
15:44:13,1068
15:44:14,1005
15:44:14,1059
15:44:14,994
15:44:14,705
15:44:15,927
15:44:15,961
15:44:15,835
15:44:16,1064
15:44:17,968
15:44:17,785
15:44:17,997
15:44:18,1013
15:44:18,749
15:44:18,868
15:44:18,1083
15:44:19,1045
15:44:19,1007
15:44:19,1032
15:44:20,985
15:44:20,728
15:44:20,929
15:44:20,850
15:44:21,943
15:44:21,825
15:44:21,884
15:44:21,902
15:44:22,935
15:44:22,1000
15:44:22,833
15:44:22,1097
15:44:23,935
15:44:23,808
15:44:23,803
15:44:23,974
15:44:24,1076
15:44:24,980
15:44:24,1038
15:44:24,765
15:44:25,867
15:44:25,1021
15:44:25,1072
15:44:25,1090
15:44:26,765
15:44:26,943
15:44:26,1058
15:44:26,1025
15:44:27,1038
15:44:27,818
15:44:28,1002
15:44:28,1095
15:44:28,1050
15:44:29,1035
15:44:29,865
15:44:29,923
15:44:30,813
15:44:30,1074
15:44:31,1084
15:44:31,948
15:44:32,845
15:44:32,1071
15:44:32,1065
15:44:33,884
15:44:33,847
15:44:34,798
15:44:35,936
15:44:36,818
15:44:36,930
15:44:37,1041
15:44:39,931
15:44:39,1078
15:44:40,1067
15:44:40,869
15:44:41,748
15:44:42,813
15:44:43,1054
15:44:44,892
15:44:44,977
15:44:45,1084
15:44:45,855
15:44:45,1017
15:44:45,830
15:44:46,784
15:44:46,706
15:44:46,747
15:44:46,912
15:44:47,772
15:44:47,701
15:44:47,784
15:44:47,817
15:44:48,973
15:44:48,983
15:44:48,955
15:44:48,869
15:44:49,847
15:44:49,837
15:44:49,929
15:44:49,784
15:44:50,931
15:44:50,865
15:44:51,988
15:44:51,914
15:44:51,927
15:44:51,992
15:44:52,802
15:44:52,1056
15:44:52,1061
15:44:53,702
15:44:53,976
15:44:53,911
15:44:53,1033
15:44:54,759
15:44:54,1024
15:44:54,1023
15:44:54,969
15:44:55,838
15:44:55,859
15:44:55,963
15:44:56,928
15:44:56,898
15:44:56,903
15:44:56,857
15:44:57,886
15:44:57,746
15:44:57,832
15:44:58,810
15:44:58,847
15:44:58,1053
15:44:58,805
15:44:59,1055
15:44:59,900
15:44:59,838
15:44:59,746
15:44:59,749
15:45:00,1071
15:45:00,931
15:45:00,779
15:45:01,752
15:45:01,991
15:45:01,784
15:45:02,992
15:45:02,704
15:45:03,908
15:45:03,1045
15:45:03,1083
15:45:03,1089
15:45:04,868
15:45:04,873
15:45:04,974
15:45:05,1053
15:45:05,980
15:45:05,705
15:45:06,1098
15:45:06,1094
15:45:06,706
15:45:07,1017
15:45:07,771
15:45:08,1051
15:45:08,951
15:45:08,749
15:45:09,911
15:45:09,1097
15:45:09,730
15:45:09,820
15:45:10,861
15:45:10,859
15:45:10,1095
15:45:10,858
15:45:11,978
15:45:11,719
15:45:11,831
15:45:11,745
15:45:11,814
15:45:12,1014
15:45:12,905
15:45:12,995
15:45:12,781
15:45:12,824
15:45:12,774
15:45:13,799
15:45:13,826
15:45:13,818
15:45:14,835
15:45:14,941
15:45:15,1086
15:45:15,749
15:45:15,759
15:45:16,807
15:45:16,742
15:45:16,1052
15:45:16,907
15:45:17,823
15:45:17,723
15:45:17,1058
15:45:18,777
15:45:18,1039
15:45:18,842
15:45:19,1037
15:45:19,909
15:45:19,937
15:45:20,971
15:45:20,899
15:45:20,905
15:45:21,1083
15:45:21,927
15:45:21,1015
15:45:21,1061
15:45:22,982
15:45:22,907
15:45:22,856
15:45:23,755
15:45:23,844
15:45:23,1026
15:45:24,807
15:45:24,721
15:45:24,1019
15:45:24,710
15:45:25,931
15:45:25,951
15:45:25,810
15:45:26,927
15:45:26,1026
15:45:26,784
15:45:26,1055
15:45:27,852
15:45:27,910
15:45:28,1035
15:45:28,757
15:45:28,1093
15:45:28,825
15:45:29,805
15:45:29,803
15:45:30,876
15:45:30,863
15:45:31,865
15:45:31,988
15:45:31,872
15:45:31,903
15:45:32,867
15:45:32,1073
15:45:32,729
15:45:33,837
15:45:33,879
15:45:33,804
15:45:34,890
15:45:34,1087
15:45:34,914
15:45:34,927
15:45:35,711
15:45:35,970
15:45:35,839
15:45:36,805
15:45:36,992
15:45:36,1040
15:45:37,872
15:45:37,923
15:45:37,934
15:45:37,800
15:45:38,722
15:45:38,1084
15:45:38,723
15:45:39,835
15:45:39,721
15:45:39,717
15:45:40,854
15:45:40,870
15:45:40,906
15:45:40,910
15:45:41,907
15:45:41,1001
15:45:41,856
15:45:41,762
15:45:42,953
15:45:42,1058
15:45:42,1037
15:45:43,923
15:45:43,1045
15:45:43,1071
15:45:43,1050
15:45:44,796
15:45:44,821
15:45:44,934
15:45:45,923
15:45:45,765
15:45:45,718
15:45:46,715
15:45:46,1049
15:45:46,717
15:45:46,1038
15:45:47,894
15:45:47,803
15:45:47,919
15:45:47,1014
15:45:48,717
15:45:48,727
15:45:49,987
15:45:49,1055
15:45:49,797
15:45:49,1097
15:45:49,983
15:45:50,750
15:45:50,801
15:45:50,918
15:45:50,1042
15:45:51,1090
15:45:51,789
15:45:51,883
15:45:52,918
15:45:52,953
15:45:52,762
15:45:52,990
15:45:53,1031
15:45:53,946
15:45:53,1085
15:45:53,806
15:45:54,1044
15:45:54,942
15:45:54,870
15:45:55,871
15:45:55,953
15:45:55,784
15:45:55,1098
15:45:55,925
15:45:56,846
15:45:56,707
15:45:56,910
15:45:56,1050
15:45:57,992
15:45:57,795
15:45:57,777
15:45:57,754
15:45:58,858
15:45:58,931
15:45:58,740
15:45:58,947
15:45:59,912
15:45:59,918
15:45:59,992
15:45:59,851
15:46:00,775
15:46:00,729
15:46:00,820
15:46:00,881
15:46:00,996
15:46:01,773
15:46:01,802
15:46:01,750
15:46:01,752
15:46:02,1090
15:46:02,869
15:46:02,868
15:46:02,804
15:46:02,863
15:46:03,1050
15:46:03,1044
15:46:03,1095
15:46:04,799
15:46:04,855
15:46:04,814
15:46:04,721
15:46:05,1085
15:46:05,908
15:46:05,921
15:46:05,843
15:46:06,1024
15:46:06,949
15:46:06,818
15:46:07,1014
15:46:07,1049
15:46:07,713
15:46:07,833
15:46:08,932
15:46:08,713
15:46:08,738
15:46:08,904
15:46:09,935
15:46:09,704
15:46:09,1049
15:46:09,1061
15:46:10,852
15:46:10,848
15:46:10,717
15:46:10,966
15:46:11,850
15:46:11,1040
15:46:11,1040
15:46:11,1036
15:46:12,1061
15:46:12,860
15:46:12,1054
15:46:12,1064
15:46:13,706
15:46:13,1098
15:46:13,1003
15:46:13,833
15:46:14,799
15:46:14,1095
15:46:14,808
15:46:14,840
15:46:15,729
15:46:15,832
15:46:15,946
15:46:16,899
15:46:16,768
15:46:16,989
15:46:16,1031
15:46:17,854
15:46:17,899
15:46:17,823
15:46:17,725
15:46:18,832
15:46:18,1059
15:46:18,811
15:46:18,993
15:46:19,960
15:46:19,855
15:46:19,1094
15:46:19,849
15:46:20,1080
15:46:20,1036
15:46:20,704
15:46:20,1095
15:46:20,1034
15:46:21,822
15:46:21,981
15:46:21,874
15:46:22,960
15:46:22,712
15:46:22,718
15:46:22,1026
15:46:23,728
15:46:23,732
15:46:23,719
15:46:23,736
15:46:24,779
15:46:24,895
15:46:24,1065
15:46:25,808
15:46:25,1039
15:46:25,908
15:46:25,751
15:46:25,1036
15:46:26,786
15:46:26,899
15:46:26,1062
15:46:26,742
15:46:27,871
15:46:27,822
15:46:27,934
15:46:27,945
15:46:28,989
15:46:28,832
15:46:28,733
15:46:28,773
15:46:29,1034
15:46:29,979
15:46:29,707
15:46:30,1021
15:46:30,1064
15:46:30,732
15:46:30,968
15:46:31,1094
15:46:31,774
15:46:31,756
15:46:31,1017
15:46:32,887
15:46:32,911
15:46:32,1062
15:46:32,849
15:46:33,792
15:46:33,855
15:46:33,856
15:46:34,812
15:46:34,912
15:46:34,961
15:46:35,728
15:46:35,839
15:46:35,815
15:46:36,909
15:46:36,868
15:46:36,723
15:46:36,788
15:46:37,879
15:46:37,1094
15:46:37,745
15:46:37,1020
15:46:38,748
15:46:38,986
15:46:38,1015
15:46:39,760
15:46:39,990
15:46:39,846
15:46:39,728
15:46:40,905
15:46:40,1078
15:46:40,933
15:46:40,850
15:46:40,763
15:46:41,720
15:46:41,935
15:46:41,825
15:46:41,971
15:46:42,994
15:46:42,953
15:46:42,897
15:46:43,1046
15:46:43,1023
15:46:43,1012
15:46:43,832
15:46:44,896
15:46:44,1048
15:46:44,933
15:46:45,754
15:46:45,862
15:46:45,882
15:46:46,752
15:46:46,950
15:46:46,976
15:46:46,771
15:46:47,1010
15:46:47,710
15:46:47,894
15:46:47,837
15:46:47,898
15:46:48,724
15:46:48,1022
15:46:48,765
15:46:48,866
15:46:49,911
15:46:49,960
15:46:49,741
15:46:49,872
15:46:50,933
15:46:50,902
15:46:50,1077
15:46:50,883
15:46:51,947
15:46:51,723
15:46:51,769
15:46:51,909
15:46:52,919
15:46:52,990
15:46:52,924
15:46:53,940
15:46:53,806
15:46:53,851
15:46:53,1050
15:46:53,708
15:46:53,906
15:46:54,742
15:46:54,803
15:46:54,1037
15:46:55,723
15:46:55,901
15:46:55,931
15:46:55,764
15:46:56,719
17:44:33,772
17:44:34,945
17:44:35,1005
17:44:35,1010
17:44:36,961
17:44:36,1091
17:44:37,744
17:44:37,722
17:44:38,735
17:44:38,951
17:44:39,1043
17:44:39,838
17:44:39,965
17:44:40,1097
17:44:40,789
17:44:41,798
17:44:41,911
17:44:42,933
17:44:44,1051
17:44:44,716
17:44:44,941
17:44:45,1006
17:44:45,823
17:44:46,706
17:44:46,1047
17:44:46,812
17:44:47,709
17:44:47,982
17:44:48,1051
17:44:48,861
17:44:49,822
17:44:49,1090
17:44:49,741
17:44:50,955
17:44:50,1051
17:44:51,967
17:44:51,905
17:44:53,1070
17:44:54,1088
17:44:55,802
17:44:57,896
17:44:58,985
17:44:59,866
17:45:00,759
17:45:01,845
17:45:03,975
17:45:06,1070
17:45:07,1018
17:45:07,891
17:45:08,984
17:45:10,952
17:45:10,796
17:45:10,869
17:45:10,1055
17:45:11,949
17:45:11,962
17:45:12,865
17:45:12,1027
17:45:12,837
17:45:12,898
17:45:13,1082
17:45:13,1037
17:45:14,928
17:45:14,759
17:45:14,984
17:45:15,721
17:45:15,780
17:45:15,915
17:45:16,926
17:45:16,813
17:45:17,1016
17:45:17,1076
17:45:17,928
17:45:18,702
17:45:18,745
17:45:19,895
17:45:19,1087
17:45:19,722
17:45:19,798
17:45:19,969
17:45:20,963
17:45:20,889
17:45:20,817
17:45:20,725
17:45:22,900
17:45:22,853
17:45:22,925
17:45:23,1047
17:45:30,880
17:45:31,935
17:45:31,1015
17:45:32,780
17:45:32,876
17:45:33,922
17:45:33,850
17:45:34,786
17:45:35,725
17:45:36,851
17:45:36,890
17:45:37,852
17:45:38,995
17:45:39,869
17:45:40,1069
17:45:40,740
17:45:41,748
17:45:41,938
17:45:41,803
17:45:42,1055
17:45:42,742
17:45:42,744
17:45:43,705
17:45:43,875
17:45:43,842
17:45:44,1019
17:45:44,1034
17:45:44,717
17:45:44,820
17:45:45,740
17:45:45,869
17:45:46,1013
17:45:46,935
17:45:47,926
17:45:47,938
17:45:48,839
17:45:49,813
17:45:49,984
17:45:50,710
17:45:51,870
17:45:51,1084
17:45:52,868
17:45:53,879
17:45:54,782
17:45:55,1060
17:45:56,1004
17:45:56,737
17:45:57,942
17:45:58,757
17:45:59,907
17:45:59,966
17:46:00,721
17:46:01,862
17:46:01,1055
17:46:01,916
17:46:01,856
17:46:02,928
17:46:02,857
17:46:03,832
17:46:03,869
17:46:03,913
17:46:04,814
17:46:04,784
17:46:05,870
17:46:05,796
17:46:05,958
17:46:05,1022
17:46:06,1068
17:46:06,917
17:46:06,1006
17:46:07,937
17:46:07,1096
17:46:08,970
17:46:08,948
17:46:08,950
17:46:09,817
17:46:09,886
17:46:10,1087
17:46:10,1043
17:46:10,820
17:46:10,831
17:46:11,816
17:46:11,956
17:46:11,856
17:46:11,863
17:46:12,905
17:46:12,710
17:46:13,956
17:46:13,831
17:46:13,976
17:46:13,1001
17:46:14,992
17:46:14,1023
17:46:15,783
17:46:15,715
17:46:15,1085
17:46:15,1027
17:46:16,1020
17:46:16,727
17:46:16,946
17:46:17,1032
17:46:17,896
17:46:17,861
17:46:18,732
17:46:18,916
17:46:19,758
17:46:19,723
17:46:20,944
17:46:20,890
17:46:20,979
17:46:20,1097
17:46:21,968
17:46:21,989
17:46:21,956
17:46:21,729
17:46:22,921
17:46:22,1004
17:46:22,712
17:46:22,973
17:46:22,733
17:46:23,732
17:46:23,947
17:46:23,971
17:46:23,945
17:46:23,867
17:46:24,875
17:46:24,732
17:46:24,957
17:46:24,912
17:46:24,859
17:46:25,778
17:46:25,1083
17:46:25,1017
17:46:25,818
17:46:26,983
17:46:26,1030
17:46:26,828
17:46:26,1023
17:46:27,746
17:46:27,833
17:46:27,743
17:46:28,715
17:46:28,997
17:46:28,1024
17:46:28,914
17:46:28,739
17:46:29,1042
17:46:29,743
17:46:29,954
17:46:30,705
17:46:30,876
17:46:30,862
17:46:30,1033
17:46:31,870
17:46:31,1001
17:46:31,893
17:46:31,1009
17:46:32,982
17:46:32,901
17:46:32,890
17:46:33,968
17:46:33,768
17:46:33,1034
17:46:33,940
17:46:33,812
17:46:34,984
17:46:34,811
17:46:34,906
17:46:34,871
17:46:34,818
17:46:35,992
17:46:35,1045
17:46:35,814
17:46:35,845
17:46:35,892
17:46:35,863
17:46:36,916
17:46:36,714
17:46:36,858
17:46:36,1095
17:46:37,1084
15:26:07,1026
15:26:08,737
15:26:08,992
15:26:09,1041
15:26:09,888
15:26:09,837
15:26:26,608
15:26:27,590
15:26:27,576
15:26:27,603
15:26:27,582
15:26:29,654
15:26:30,748
15:26:30,753
15:26:30,716
15:26:32,724
15:26:33,758
15:26:33,804
15:26:33,735
15:26:34,668
15:26:36,642
15:26:36,658
15:26:37,628
15:26:37,635
15:26:37,616
15:26:39,661
15:26:39,622
15:26:40,713
15:26:40,914
15:26:42,799
15:26:43,760
15:26:43,797
15:26:43,731
15:26:45,667
15:26:45,637
15:26:46,637
15:28:09,994
15:28:10,740
15:28:10,914
15:28:10,846
15:28:11,943
15:28:11,709
15:28:11,736
15:28:13,1023
15:28:26,673
15:28:27,705
15:28:28,710
15:28:29,699
15:28:29,691
15:28:30,697
15:28:30,682
15:28:31,641
15:28:32,601
15:28:32,616
15:28:33,602
15:28:33,595
15:28:34,605
15:28:35,611
15:28:35,603
15:28:36,645
15:28:38,748
15:28:38,700
15:28:38,721
15:28:39,732
15:28:40,744
15:28:40,724
15:28:41,682
15:28:42,660
15:28:42,647
15:28:43,649
15:28:44,658
15:28:44,644
15:28:45,641
15:28:46,644
15:28:46,662
15:28:47,703
15:28:48,713
15:28:48,732
15:28:49,711
15:28:50,728
15:28:50,735
15:28:51,687
15:28:52,670
15:28:52,664
15:28:53,656
15:28:54,667
15:28:55,661
15:28:55,652
15:28:56,684
15:28:56,657
15:28:57,726
15:28:58,718
15:28:59,712
15:28:59,708
15:29:00,713
15:29:01,667
15:29:01,690
15:29:02,655
15:29:03,699
15:29:03,669
15:29:04,693
15:29:05,693
15:29:06,707
15:29:06,724
15:29:07,691
15:29:08,663
15:29:08,648
15:29:09,657
15:29:10,657
15:29:10,648
15:29:11,650
15:29:12,679
15:29:12,698
15:29:13,671
15:29:14,673
15:29:14,690
15:29:15,691
15:29:16,672
15:29:16,650
15:29:17,640
15:29:18,658
15:29:18,649
15:29:19,641
15:29:20,637
15:29:20,656
15:29:21,677
15:29:22,684
15:29:22,691
15:29:23,688
15:29:24,697
15:29:24,709
15:29:25,674
15:29:26,663
15:29:26,653
15:29:27,646
15:29:29,634
15:29:29,633
15:29:29,633
15:29:30,646
15:29:30,652
15:29:31,628
15:29:31,622
15:29:32,637
15:29:33,662
15:29:33,633
15:29:34,604
15:29:35,581
15:29:35,586
15:29:36,583
15:29:36,587
15:29:37,600
15:29:37,605
15:29:38,617
15:29:39,625
15:29:39,622
15:29:40,617
15:29:41,607
15:29:41,601
15:29:42,599
15:29:42,603
15:29:43,614
15:29:44,624
15:29:44,623
15:29:45,632
15:29:46,676
15:29:46,648
15:29:47,698
15:29:48,688
15:29:48,681
15:29:49,679
15:29:50,662
15:29:50,677
15:29:51,652
15:29:52,633
15:29:52,638
15:29:53,625
15:29:53,629
15:29:54,619
15:29:55,616
15:29:55,620
15:29:56,641
15:29:57,667
15:29:57,654
15:29:58,668
15:29:59,671
15:29:59,674
15:30:00,649
15:30:01,653
15:30:01,647
15:30:02,664
15:30:03,663
15:30:03,648
15:30:04,642
15:30:05,643
15:30:05,654
15:30:06,650
15:30:06,643
15:30:07,642
15:30:08,663
15:30:08,669
15:30:10,654
15:30:10,653
15:30:10,651
15:30:11,663
15:30:12,639
15:30:12,613
15:30:13,607
15:30:14,605
15:30:14,691
15:30:15,770
15:30:16,724
15:30:16,719
15:30:17,712
15:30:18,689
15:30:18,659
15:30:19,643
15:30:20,643
15:30:20,635
15:30:21,658
15:30:22,664
15:30:22,677
15:30:23,662
15:30:24,672
15:30:24,665
15:30:25,683
15:30:26,667
15:30:26,672
15:30:27,657
15:30:28,653
15:30:28,646
15:30:29,634
15:30:30,633
15:30:30,624
15:30:31,618
15:30:32,624
15:30:32,621
15:30:33,628
15:30:33,620
15:30:34,642
15:30:35,696
15:30:35,681
15:30:36,692
15:30:37,690
15:30:37,693
15:30:38,674
15:30:39,646
15:30:39,617
15:30:40,590
15:30:41,584
15:30:41,580
15:30:42,600
15:30:42,610
15:30:43,629
15:30:44,689
15:30:44,663
15:30:45,677
15:30:46,665
15:30:46,661
15:30:47,657
15:30:48,643
15:30:48,638
15:30:49,643
15:30:50,646
15:30:50,655
15:30:51,648
15:30:52,653
15:30:52,648
15:30:53,694
15:30:54,749
15:30:54,758
15:30:55,711
15:30:56,709
15:30:57,701
15:30:57,701
15:30:58,678
15:30:59,664
15:30:59,663
15:31:00,660
15:31:01,652
15:31:01,649
15:31:02,659
15:31:03,695
15:31:03,672
15:31:04,686
15:31:05,676
15:31:05,676
15:31:06,690
15:31:07,665
15:31:07,676
15:31:08,679
15:31:09,718
15:31:09,729
15:31:10,727
15:31:11,743
15:31:12,738
15:31:12,696
15:31:13,681
15:31:14,674
15:31:14,671
15:31:15,661
15:31:16,654
15:31:16,660
15:31:17,677
15:31:18,675
15:31:18,656
15:31:19,654
15:31:20,682
15:31:20,720
15:31:21,706
15:31:22,661
15:31:22,682
15:31:23,648
15:31:24,654
15:31:24,645
15:31:25,652
15:31:26,646
15:31:26,640
15:31:27,653
15:31:28,652
15:31:28,639
15:31:29,641
15:31:30,693
15:31:30,659
15:31:31,706
15:31:32,673
15:31:32,681
15:31:33,670
15:31:34,664
15:31:34,670
15:31:35,648
15:31:36,648
15:31:37,661
15:31:37,677
15:31:38,689
15:31:38,652
15:31:39,632
15:31:41,632
15:31:41,646
15:31:41,652
15:31:42,659
15:31:42,641
15:31:43,636
15:31:43,634
15:31:44,619
15:31:45,619
15:31:45,622
15:31:46,619
15:31:47,625
15:31:47,635
15:31:48,668
15:31:48,657
15:31:49,659
15:31:50,653
15:31:50,657
15:31:51,665
15:31:52,684
15:31:52,678
15:31:53,666
15:31:54,661
15:31:54,670
15:31:55,650
15:31:57,639
15:31:57,641
15:31:57,647
15:31:58,662
15:31:58,676
15:31:59,667
15:32:00,668
15:32:00,686
15:32:01,668
15:32:02,668
15:32:02,651
15:32:03,655
15:32:04,654
15:32:04,643
15:32:05,639
15:32:06,622
15:32:06,600
15:32:07,596
15:32:07,605
15:32:08,627
15:32:09,658
15:32:09,650
15:32:10,651
15:32:11,649
15:32:11,647
15:32:12,645
15:32:13,607
15:32:13,627
15:32:14,602
15:32:14,605
15:32:15,624
15:32:17,715
15:32:17,681
15:32:17,755
15:32:18,794
15:32:19,877
15:32:20,761
15:32:20,816
15:32:21,743
15:32:22,710
15:32:23,704
15:32:23,683
15:32:24,674
15:32:25,677
15:32:25,707
15:32:26,743
15:32:27,723
15:32:28,712
15:32:28,714
15:32:29,711
15:32:30,694
15:32:30,677
15:32:31,657
15:32:32,669
15:32:32,664
15:32:33,659
15:32:34,653
15:32:34,676
15:32:35,682
15:32:36,663
15:32:36,672
15:32:37,681
15:32:38,753
15:32:38,754
15:32:39,717
15:32:40,687
15:32:41,667
15:32:41,661
15:32:42,670
15:32:43,676
15:32:43,673
15:32:44,662
15:32:45,658
15:32:45,672
15:32:46,678
15:32:47,690
15:32:47,679
15:32:48,712
15:32:49,731
15:32:49,756
15:32:50,696
15:32:51,689
15:32:52,671
15:32:52,674
15:32:53,669
15:32:54,645
15:32:54,647
15:32:55,646
15:32:55,641
15:32:56,664
15:32:57,670
15:32:57,649
15:32:58,649
15:32:59,656
15:32:59,668
15:33:00,671
15:33:01,637
15:33:02,657
15:33:02,647
15:33:03,649
15:33:03,659
15:33:04,653
15:33:05,644
15:33:05,642
15:33:06,656
15:33:07,674
15:33:07,692
15:33:08,676
15:33:09,663
15:33:09,671
15:33:10,682
15:33:11,656
15:33:12,675
15:33:12,662
15:33:13,684
15:33:13,684
15:33:14,678
15:33:15,663
15:33:15,679
15:33:17,639
15:33:17,636
15:33:17,641
15:33:18,630
15:33:19,628
15:33:19,626
15:33:20,634
15:33:20,638
15:33:21,638
15:33:22,631
15:33:22,637
15:33:23,642
15:33:24,640
15:33:24,628
15:33:25,627
15:33:26,624
15:33:26,625
15:33:27,618
15:33:27,616
15:33:28,611
15:33:29,634
15:33:29,625
15:33:30,636
15:33:31,633
15:33:32,643
15:33:32,643
15:33:32,653
15:33:33,639
15:33:34,636
15:33:34,634
15:33:35,637
15:33:36,632
15:33:36,615
15:33:37,602
15:33:37,597
15:33:38,609
15:33:39,689
15:33:39,645
15:33:40,717
15:33:41,695
15:33:42,666
15:33:42,650
15:33:43,656
15:33:43,644
15:33:44,683
15:33:45,689
15:33:45,676
15:33:46,656
15:33:47,649
15:33:47,660
15:33:48,674
15:33:50,692
15:33:50,692
15:33:50,679
15:33:51,664
15:33:52,672
15:33:52,668
15:33:53,669
15:33:54,647
15:33:54,654
15:33:55,655
15:33:55,647
15:33:56,670
15:33:57,660
15:33:57,668
15:33:58,649
15:33:59,659
15:33:59,670
15:34:00,662
15:34:01,646
15:34:01,650
15:34:02,652
15:34:03,671
15:34:03,669
15:34:04,656
15:34:05,646
15:34:05,640
15:34:06,643
15:34:07,640
15:34:07,636
15:34:08,626
15:34:08,617
15:34:09,620
15:34:10,652
15:34:10,632
15:34:11,653
15:34:12,667
15:34:12,659
15:34:13,681
15:34:14,672
15:34:14,681
15:34:15,661
15:34:17,638
15:34:17,632
15:34:17,632
15:34:18,627
15:34:18,627
15:34:19,646
15:34:20,749
15:34:20,704
15:34:21,757
15:34:22,752
15:34:23,713
15:34:23,747
15:34:24,675
15:34:25,653
15:34:25,646
15:34:26,641
15:34:27,609
15:34:27,624
15:34:28,590
15:34:28,586
15:34:29,597
15:34:30,611
15:34:30,621
15:34:31,629
15:34:32,644
15:34:32,657
15:34:33,647
15:34:33,653
15:34:34,650
15:34:35,660
15:34:35,656
15:34:36,653
15:34:38,647
15:34:38,647
15:34:38,643
15:34:39,650
15:34:39,657
15:34:40,654
15:34:41,691
15:34:42,661
15:34:42,758
15:34:43,826
15:34:44,751
15:34:44,694
15:34:45,644
15:34:46,611
15:34:46,620
15:34:47,614
15:34:47,618
15:34:48,630
15:34:49,687
15:34:50,967
15:34:51,870
15:34:51,817
15:34:53,826
15:34:53,829
15:34:54,805
15:34:55,755
15:34:55,742
15:34:56,709
15:34:57,678
15:34:57,685
15:34:58,666
15:34:59,681
15:34:59,711
15:35:00,700
15:35:01,718
15:35:02,762
15:35:02,754
15:35:03,729
15:35:04,699
15:35:04,677
15:35:05,674
15:35:06,679
15:35:06,667
15:35:07,677
15:35:08,719
15:35:09,757
15:35:09,784
15:35:10,739
15:35:11,713
15:35:12,698
15:35:12,700
15:35:13,681
15:35:14,657
15:35:14,641
15:35:15,630
15:35:16,624
15:35:16,638
15:35:17,644
15:35:17,649
15:35:18,642
15:35:19,654
15:35:19,664
15:35:20,680
15:35:21,663
15:35:21,651
15:35:22,651
15:35:23,663
15:35:23,655
15:35:24,613
15:35:25,598
15:35:25,597
15:35:26,620
15:35:26,637
15:35:27,638
15:35:28,663
15:35:28,673
15:35:29,678
15:35:30,658
15:35:30,637
15:35:31,625
15:35:32,638
15:35:32,627
15:35:33,663
15:35:34,743
15:35:34,688
15:35:35,822
15:35:37,871
15:35:37,832
15:35:38,798
15:35:38,784
15:35:39,771
15:35:40,758
15:35:41,719
15:35:41,691
15:35:42,673
15:35:43,675
15:35:43,681
15:35:44,691
15:35:45,677
15:35:46,666
15:35:46,688
15:35:47,727
15:35:48,713
15:35:48,771
15:35:49,689
15:35:50,691
15:35:50,679
15:35:51,704
15:35:52,677
15:35:52,677
15:35:53,668
15:35:54,682
15:35:55,666
15:35:55,674
15:35:56,647
15:35:57,655
15:35:57,645
15:35:58,690
15:35:58,672
15:35:59,673
15:36:00,666
15:36:01,702
15:36:01,685
15:36:02,690
15:36:03,668
15:36:03,676
15:36:04,681
15:36:05,692
15:36:05,689
15:36:06,682
15:36:07,694
15:36:07,688
15:36:08,707
15:36:09,698
15:36:09,664
15:36:10,665
15:36:11,680
15:36:11,666
15:36:12,662
15:36:13,650
15:36:13,645
15:36:14,653
15:36:15,687
15:36:15,668
15:36:16,680
15:36:18,701
15:36:18,683
15:36:18,690
15:36:19,677
15:36:20,655
15:36:20,634
15:36:21,625
15:36:21,623
15:36:22,637
15:36:23,680
15:36:23,658
15:36:24,721
15:36:25,838
15:36:26,854
15:36:27,794
15:36:27,785
15:36:28,755
15:36:29,737
15:36:30,678
15:36:30,657
15:36:31,651
15:36:31,648
15:36:32,664
15:36:33,670
15:36:34,659
15:36:34,661
15:36:35,680
15:36:36,696
15:36:37,690
15:36:37,675
15:36:38,670
15:36:38,681
15:36:39,683
15:36:40,664
15:36:40,674
15:36:41,654
15:36:42,660
15:36:42,649
15:36:43,673
15:36:44,671
15:36:44,689
15:36:45,697
15:36:46,733
15:36:46,728
15:36:47,710
15:36:48,716
15:36:49,736
15:36:49,712
15:36:50,675
15:36:51,644
15:36:52,661
15:36:52,635
15:36:53,635
15:36:53,628
15:36:54,632
15:36:54,624
15:36:55,657
15:36:57,660
15:36:57,675
15:36:57,714
15:36:58,724
15:36:59,699
15:36:59,719
15:37:00,667
15:37:01,666
15:37:01,657
15:37:02,659
15:37:03,653
15:37:03,651
15:37:04,656
15:37:05,653
15:37:05,660
15:37:06,670
15:37:07,698
15:37:07,703
15:37:08,704
15:37:09,702
15:37:09,731
15:37:10,748
15:37:11,734
15:37:12,701
15:37:12,686
15:37:13,680
15:37:14,693
15:37:14,694
15:37:15,696
15:37:16,704
15:37:16,715
15:37:17,694
15:37:18,663
15:37:18,629
15:37:19,606
15:37:20,594
15:37:20,598
15:37:21,605
15:37:22,603
15:37:22,607
15:37:23,624
15:37:23,635
15:37:24,646
15:37:25,656
15:37:25,645
15:37:26,645
15:37:27,675
15:37:27,660
15:37:28,684
15:37:29,678
15:37:29,694
15:37:30,690
15:37:31,755
15:37:31,715
15:37:32,791
15:37:33,751
15:37:34,684
15:37:34,692
15:37:35,678
15:37:36,690
15:37:36,679
15:37:37,683
15:37:38,718
15:37:39,789
15:37:39,858
15:37:40,792
15:37:41,766
15:37:42,732
15:37:42,718
15:37:43,696
15:37:44,705
15:37:45,700
15:37:45,704
15:37:46,679
15:37:47,670
15:37:47,670
15:37:48,675
15:37:49,687
15:37:49,686
15:37:50,677
15:37:51,676
15:37:52,688
15:37:52,697
15:37:53,692
15:37:53,670
15:37:54,672
15:37:55,675
15:37:56,694
15:37:56,710
15:37:58,733
15:37:58,759
15:37:58,740
15:37:59,758
15:38:00,719
15:38:01,701
17:40:36,634
17:40:36,635
17:40:36,637
17:40:36,642
17:40:36,644
17:40:36,652
17:40:37,665
17:40:37,683
17:40:37,688
17:40:37,683
17:40:37,678
17:40:37,691
17:40:37,675
17:40:37,687
17:40:37,696
17:40:37,692
17:40:37,708
17:40:37,697
17:40:37,702
17:40:38,696
17:40:38,636
17:40:38,652
17:40:38,678
17:40:38,658
17:40:38,648
17:40:39,646
17:40:39,640
17:40:40,653
17:40:41,662
17:40:41,675
17:40:42,723
17:40:43,837
17:40:44,818
17:40:45,878
17:40:45,897
17:40:46,887
17:40:47,864
17:40:48,828
17:40:49,819
17:40:50,802
17:40:50,807
17:40:51,786
17:40:52,773
17:40:53,742
17:40:53,742
17:40:54,756
17:40:55,775
17:40:56,806
17:40:57,761
17:40:57,726
17:40:58,701
17:40:59,705
17:40:59,703
17:41:00,698
17:41:01,704
17:41:02,696
17:41:02,714
17:41:03,730
17:41:04,724
17:41:04,728
17:41:05,736
17:41:06,760
17:41:07,787
17:41:07,784
17:41:08,741
17:41:09,731
17:41:10,751
17:41:10,791
17:41:11,784
17:41:12,766
17:41:13,784
17:41:14,772
17:41:14,792
17:41:15,755
17:41:16,744
17:41:17,749
17:41:17,778
17:41:18,749
17:41:19,732
17:41:20,743
17:41:20,753
17:41:21,772
17:41:22,771
17:41:23,725
17:41:23,732
17:41:24,721
17:41:25,745
17:41:26,749
17:41:26,727
17:41:27,736
17:41:28,734
17:41:29,765
17:41:29,751
17:41:30,715
17:41:31,705
17:41:31,712
17:41:32,736
17:41:33,729
17:41:34,729
17:41:34,714
17:41:35,737
17:41:36,736
17:41:37,699
17:41:37,692
17:41:38,687
17:41:39,691
17:41:39,696
17:41:40,675
17:41:41,668
17:41:41,686
17:41:42,727
17:41:43,697
17:41:43,705
17:41:44,667
17:41:45,665
17:41:45,664
17:41:46,675
17:41:47,701
17:41:48,679
17:41:48,694
17:41:49,683
17:41:50,691
17:41:50,708
17:41:51,714
17:41:52,707
17:41:52,711
17:41:53,728
17:41:54,739
17:41:55,704
17:41:55,718
17:41:56,715
17:41:57,732
17:41:58,743
17:41:58,723
17:41:59,699
17:42:00,714
17:42:00,706
17:42:01,725
17:42:02,724
17:42:03,715
17:42:03,717
17:42:04,721
17:42:05,740
17:42:05,744
17:42:06,707
17:42:07,717
17:42:08,717
17:42:08,733
17:42:09,739
17:42:10,738
17:42:11,749
17:42:11,778
17:42:12,801
17:42:13,780
17:42:14,751
17:42:14,744
17:42:15,738
17:42:16,755
17:42:17,747
17:42:17,725
17:42:18,749
17:42:19,801
17:42:20,865
17:42:21,859
17:42:21,821
17:42:22,811
17:42:23,823
17:42:24,816
17:42:25,828
17:42:26,857
17:42:26,869
17:42:27,860
17:42:28,801
17:42:29,808
17:42:30,795
17:42:31,760
17:42:31,806
17:42:32,746
17:42:33,762
17:42:34,783
17:42:34,791
17:42:35,785
17:42:36,804
17:42:37,853
17:42:38,940
17:42:39,810
17:42:39,784
17:42:40,754
17:42:41,744
17:42:42,747
17:42:42,759
17:42:43,783
17:42:44,840
17:42:45,987
17:42:46,870
17:42:47,828
17:42:48,830
17:42:48,844
17:42:49,829
17:42:50,785
17:42:51,768
17:42:51,754
17:42:52,784
17:42:53,827
17:42:54,793
17:42:55,817
17:42:55,787
17:42:56,860
17:42:57,808
17:42:58,745
17:42:59,739
17:42:59,736
17:43:00,748
17:43:01,747
17:43:02,770
17:43:02,738
17:43:03,797
17:43:04,828
17:43:05,795
17:43:06,803
17:43:06,826
17:43:07,820
17:43:08,741
17:43:09,717
17:43:09,707
17:43:10,724
17:43:11,732
17:43:12,719
17:43:12,717
17:43:13,690
17:43:14,687
17:43:14,645
17:43:15,646
